# Temperatures (K), Cp (J/K/mol)
1.000000000000000000e+00 3.891088076887616598e-02
4.298000000000000043e+00 1.712572829202465563e-01
7.596000000000000085e+00 3.162746287144446722e-01
1.089400000000000013e+01 4.824379202266192435e-01
1.419200000000000017e+01 6.782263515726891789e-01
1.749000000000000199e+01 9.121238621666335478e-01
2.078800000000000026e+01 1.192619129509661757e+00
2.408599999999999852e+01 1.528194826749411206e+00
2.738400000000000034e+01 1.927254211310835963e+00
3.068200000000000216e+01 2.397874185330235886e+00
3.398000000000000398e+01 2.947300953388549249e+00
3.727799999999999869e+01 3.581251184968674117e+00
4.057600000000000051e+01 4.303218823996982856e+00
4.387400000000000233e+01 5.113999654595828837e+00
4.717199999999999704e+01 6.011550292778235161e+00
5.046999999999999886e+01 6.991179666205709076e+00
5.376800000000000068e+01 8.045989922948617590e+00
5.706600000000000250e+01 9.167454398782624025e+00
6.036400000000000432e+01 1.034602931243925639e+01
6.366199999999999903e+01 1.157172338543768575e+01
6.696000000000000796e+01 1.283458049664772460e+01
7.025799999999999557e+01 1.412505653962317353e+01
7.355599999999999739e+01 1.543429009333173596e+01
7.685399999999999920e+01 1.675427761870707855e+01
8.015200000000000102e+01 1.807796920423669462e+01
8.345000000000000284e+01 1.939930232207294480e+01
8.674800000000000466e+01 2.071319007588274630e+01
9.004600000000000648e+01 2.201547821886244449e+01
9.334399999999999409e+01 2.330288270503260151e+01
9.664199999999999591e+01 2.457291684109597085e+01
9.993999999999999773e+01 2.582381499066020325e+01
1.032379999999999995e+02 2.705445772749548894e+01
1.065360000000000014e+02 2.826430190125579145e+01
1.098340000000000032e+02 2.945331804536893117e+01
1.131320000000000050e+02 3.062193653415487660e+01
1.164300000000000068e+02 3.177100372445843490e+01
1.197280000000000086e+02 3.290174871348467178e+01
1.230259999999999962e+02 3.401576151420342597e+01
1.263239999999999981e+02 3.511498361030603377e+01
1.296220000000000141e+02 3.620171203374137292e+01
1.329200000000000159e+02 3.727861892308997227e+01
1.362179999999999893e+02 3.834878939180115509e+01
1.395159999999999911e+02 3.941578181057919750e+01
1.428139999999999930e+02 4.048371685781451390e+01
1.461119999999999948e+02 4.155740467417058426e+01
1.494099999999999966e+02 4.264252420042576830e+01
1.527079999999999984e+02 4.374587643863777942e+01
1.560060000000000002e+02 4.487574538964634030e+01
1.593040000000000020e+02 4.604242083852051337e+01
1.626020000000000039e+02 4.725897261668792737e+01
1.659000000000000057e+02 4.854242897144905555e+01
1.691980000000000075e+02 4.991563226127875907e+01
1.724960000000000093e+02 5.141028292906084118e+01
1.757940000000000111e+02 5.307218975024250796e+01
1.790920000000000130e+02 5.497090589900756896e+01
1.823900000000000148e+02 5.721886971084386175e+01
1.856879999999999882e+02 6.001359995567609928e+01
1.889859999999999900e+02 6.374517487481281108e+01
1.922839999999999918e+02 6.933640479326680861e+01
1.955819999999999936e+02 7.981495581522706573e+01
1.988799999999999955e+02 1.204235737599337739e+02
2.021779999999999973e+02 4.103930964282457694e+01
2.054759999999999991e+02 4.137307504005833891e+01
2.087740000000000009e+02 4.169600164255680852e+01
2.120720000000000027e+02 4.200857095948249764e+01
2.153700000000000045e+02 4.231124162051412441e+01
2.186680000000000064e+02 4.260445026098916088e+01
2.219660000000000082e+02 4.288861259834068562e+01
2.252640000000000100e+02 4.316412426663776358e+01
2.285620000000000118e+02 4.343136187378301827e+01
2.318600000000000136e+02 4.369068378130379671e+01
2.351580000000000155e+02 4.394243105705857744e+01
2.384560000000000173e+02 4.418692829153682311e+01
2.417539999999999907e+02 4.442448445410073532e+01
2.450519999999999925e+02 4.465539355577498526e+01
2.483499999999999943e+02 4.487993555910536969e+01
2.516479999999999961e+02 4.509837696616014568e+01
2.549459999999999980e+02 4.531097156730790232e+01
2.582440000000000282e+02 4.551796106106063888e+01
2.615420000000000300e+02 4.571957566171382581e+01
2.648400000000000318e+02 4.591603472561265420e+01
2.681379999999999768e+02 4.610754727144003340e+01
2.714359999999999786e+02 4.629431256759536950e+01
2.747339999999999804e+02 4.647652054171051361e+01
2.780319999999999823e+02 4.665435235240173739e+01
2.813299999999999841e+02 4.682798076881292104e+01
2.846279999999999859e+02 4.699757065866038630e+01
2.879259999999999877e+02 4.716327932997339900e+01
2.912239999999999895e+02 4.732525698743067721e+01
2.945219999999999914e+02 4.748364699066506489e+01
2.978199999999999932e+02 4.763858636349401365e+01
3.011179999999999950e+02 4.779020589134363917e+01
3.044159999999999968e+02 4.793863068600165178e+01
3.077139999999999986e+02 4.808398024726244557e+01
3.110120000000000005e+02 4.822636890268263699e+01
3.143100000000000023e+02 4.836590590925363387e+01
3.176080000000000041e+02 4.850269596057548682e+01
3.209060000000000059e+02 4.863683905459711809e+01
3.242040000000000077e+02 4.876843102374889583e+01
3.275020000000000095e+02 4.889756364112346887e+01
3.308000000000000114e+02 4.902432475442163451e+01
3.340980000000000132e+02 4.914879855211822246e+01
3.373960000000000150e+02 4.927106574661713267e+01
3.406940000000000168e+02 4.939120367878163620e+01
3.439920000000000186e+02 4.950928647215528855e+01
3.472900000000000205e+02 4.962538529190005931e+01
3.505880000000000223e+02 4.973956840985318451e+01
3.538860000000000241e+02 4.985190129249042457e+01
3.571840000000000259e+02 4.996244681848408931e+01
3.604820000000000277e+02 5.007126539636546880e+01
3.637800000000000296e+02 5.017841493476889525e+01
3.670780000000000314e+02 5.028395123004005285e+01
3.703759999999999764e+02 5.038792776747803970e+01
3.736739999999999782e+02 5.049039604871941123e+01
3.769719999999999800e+02 5.059140552373217758e+01
3.802699999999999818e+02 5.069100376482461456e+01
3.835679999999999836e+02 5.078923659748205210e+01
3.868659999999999854e+02 5.088614809550226425e+01
3.901639999999999873e+02 5.098178059874059898e+01
3.934619999999999891e+02 5.107617492095914713e+01
3.967599999999999909e+02 5.116937046383615240e+01
4.000579999999999927e+02 5.126140498925897759e+01
4.033559999999999945e+02 5.135231505892459580e+01
4.066539999999999964e+02 5.144213578290246858e+01
4.099519999999999982e+02 5.153090108869869113e+01
4.132500000000000000e+02 5.161864364280560125e+01
4.165480000000000018e+02 5.170539496648185462e+01
4.198460000000000036e+02 5.179118540897634659e+01
4.231440000000000055e+02 5.187604436495124816e+01
4.264420000000000073e+02 5.196000012640669752e+01
4.297400000000000091e+02 5.204308004551362643e+01
4.330380000000000109e+02 5.212531043492350591e+01
4.363360000000000127e+02 5.220671682229517074e+01
4.396340000000000146e+02 5.228732387609727539e+01
4.429320000000000164e+02 5.236715528971862454e+01
4.462300000000000182e+02 5.244623411346098862e+01
4.495280000000000200e+02 5.252458249432261539e+01
4.528260000000000218e+02 5.260222199290392098e+01
4.561240000000000236e+02 5.267917334604391044e+01
4.594220000000000255e+02 5.275545668991140502e+01
4.627200000000000273e+02 5.283109136390585547e+01
4.660180000000000291e+02 5.290609624570181069e+01
4.693160000000000309e+02 5.298048959821694837e+01
4.726140000000000327e+02 5.305428895556266156e+01
4.759120000000000346e+02 5.312751141707032332e+01
4.792099999999999795e+02 5.320017355020149807e+01
4.825079999999999814e+02 5.327229132669201306e+01
4.858059999999999832e+02 5.334388023721143668e+01
4.891039999999999850e+02 5.341495537762711621e+01
4.924019999999999868e+02 5.348553124271909809e+01
4.956999999999999886e+02 5.355562205267028730e+01
4.989979999999999905e+02 5.362524143426394119e+01
5.022959999999999923e+02 5.369440269042787151e+01
5.055939999999999941e+02 5.376311874794781431e+01
5.088919999999999959e+02 5.383140200928718855e+01
5.121900000000000546e+02 5.389926475391187921e+01
5.154880000000000564e+02 5.396671863960121129e+01
5.187860000000000582e+02 5.403377512426813922e+01
5.220840000000000600e+02 5.410044534006734551e+01
5.253820000000000618e+02 5.416674001780067016e+01
5.286800000000000637e+02 5.423266970784703744e+01
5.319779999999999518e+02 5.429824442382177097e+01
5.352759999999999536e+02 5.436347420731561897e+01
5.385739999999999554e+02 5.442828662988291200e+01
5.418719999999999573e+02 5.449251631989495337e+01
5.451699999999999591e+02 5.455606366855982259e+01
5.484679999999999609e+02 5.461894051133553063e+01
5.517659999999999627e+02 5.468115829364894864e+01
5.550639999999999645e+02 5.474272849368306737e+01
5.583619999999999663e+02 5.480366220285873169e+01
5.616599999999999682e+02 5.486397023602525280e+01
5.649579999999999700e+02 5.492366339920948803e+01
5.682559999999999718e+02 5.498275221062692708e+01
5.715539999999999736e+02 5.504124687126214610e+01
5.748519999999999754e+02 5.509915764682068584e+01
5.781499999999999773e+02 5.515649424828239944e+01
5.814479999999999791e+02 5.521326665513484500e+01
5.847459999999999809e+02 5.526948429018834474e+01
5.880439999999999827e+02 5.532515657014404553e+01
5.913419999999999845e+02 5.538029270504568302e+01
5.946399999999999864e+02 5.543490180516461407e+01
5.979379999999999882e+02 5.548899264428369094e+01
6.012359999999999900e+02 5.554257389499448294e+01
6.045339999999999918e+02 5.559565430929993823e+01
6.078319999999999936e+02 5.564824211291987410e+01
6.111299999999999955e+02 5.570034561477191914e+01
6.144279999999999973e+02 5.575197291604465022e+01
6.177259999999999991e+02 5.580313193786680870e+01
6.210240000000000009e+02 5.585383046936288309e+01
6.243220000000000027e+02 5.590407620309402148e+01
6.276200000000000045e+02 5.595387672014213365e+01
6.309180000000000064e+02 5.600323929501433184e+01
6.342160000000000082e+02 5.605217135033724674e+01
6.375140000000000100e+02 5.610067982923489183e+01
6.408120000000000118e+02 5.614877189872642305e+01
6.441100000000000136e+02 5.619645426251477005e+01
6.474080000000000155e+02 5.624373386586495371e+01
6.507060000000000173e+02 5.629061723733197908e+01
6.540040000000000191e+02 5.633711091359315049e+01
6.573020000000000209e+02 5.638322133618763843e+01
6.606000000000000227e+02 5.642895477160063678e+01
6.638980000000000246e+02 5.647431739425370978e+01
6.671960000000000264e+02 5.651931523941668445e+01
6.704940000000000282e+02 5.656395439788132506e+01
6.737920000000000300e+02 5.660824069016278060e+01
6.770900000000000318e+02 5.665217982267341768e+01
6.803880000000000337e+02 5.669577751485218187e+01
6.836860000000000355e+02 5.673903922761643059e+01
6.869840000000000373e+02 5.678197066986246710e+01
6.902820000000000391e+02 5.682457695019535038e+01
6.935800000000000409e+02 5.686686350503651255e+01
6.968780000000000427e+02 5.690883554477245809e+01
7.001760000000000446e+02 5.695049807579465551e+01
7.034740000000000464e+02 5.699185621628732434e+01
7.067720000000000482e+02 5.703291485013789952e+01
7.100700000000000500e+02 5.707367888453809712e+01
7.133680000000000518e+02 5.711415298121293205e+01
7.166660000000000537e+02 5.715434188858090181e+01
7.199640000000000555e+02 5.719425025953579933e+01
7.232620000000000573e+02 5.723388263102810924e+01
7.265600000000000591e+02 5.727324339743599779e+01
7.298580000000000609e+02 5.731233695542569961e+01
7.331560000000000628e+02 5.735116763691334540e+01
7.364540000000000646e+02 5.738973970561303872e+01
7.397519999999999527e+02 5.742805730205362380e+01
7.430499999999999545e+02 5.746612452476482247e+01
7.463479999999999563e+02 5.750394547993688832e+01
7.496459999999999582e+02 5.754152403044464847e+01
7.529439999999999600e+02 5.757886418537585627e+01
7.562419999999999618e+02 5.761596965666456782e+01
7.595399999999999636e+02 5.765284429660945875e+01
7.628379999999999654e+02 5.768949187469868889e+01
7.661359999999999673e+02 5.772591600576536308e+01
7.694339999999999691e+02 5.776212028564189183e+01
7.727319999999999709e+02 5.779810817919208432e+01
7.760299999999999727e+02 5.783388336303116262e+01
7.793279999999999745e+02 5.786944910258372943e+01
7.826259999999999764e+02 5.790480885315135851e+01
7.859239999999999782e+02 5.793996583562267944e+01
7.892219999999999800e+02 5.797492344391497454e+01
7.925199999999999818e+02 5.800968474713145184e+01
7.958179999999999836e+02 5.804425313835726996e+01
7.991159999999999854e+02 5.807863159485405902e+01
8.024139999999999873e+02 5.811282312681902340e+01
8.057119999999999891e+02 5.814683093179356632e+01
8.090099999999999909e+02 5.818065778376472252e+01
8.123079999999999927e+02 5.821430680956169113e+01
8.156059999999999945e+02 5.824778078172983697e+01
8.189039999999999964e+02 5.828108244207397348e+01
8.222019999999999982e+02 5.831421475232737350e+01
8.255000000000000000e+02 5.834718047285010556e+01
8.287980000000000018e+02 5.837998225370908045e+01
8.320960000000000036e+02 5.841262273081715506e+01
8.353940000000000055e+02 5.844510463691403146e+01
8.386920000000000073e+02 5.847743047564514995e+01
8.419900000000000091e+02 5.850960277528120201e+01
8.452880000000000109e+02 5.854162419016196850e+01
8.485860000000000127e+02 5.857349702053262774e+01
8.518840000000000146e+02 5.860522389274665755e+01
8.551820000000000164e+02 5.863680710283524888e+01
8.584800000000000182e+02 5.866824896376089526e+01
8.617780000000000200e+02 5.869955192012263012e+01
8.650760000000000218e+02 5.873071827490525010e+01
8.683740000000000236e+02 5.876175018558095786e+01
8.716720000000000255e+02 5.879265000776649686e+01
8.749700000000000273e+02 5.882341991888438315e+01
8.782680000000000291e+02 5.885406202525999220e+01
8.815660000000000309e+02 5.888457840546008981e+01
8.848640000000000327e+02 5.891497133384038420e+01
8.881620000000000346e+02 5.894524296750526560e+01
8.914600000000000364e+02 5.897539505417864092e+01
8.947580000000000382e+02 5.900542979137067334e+01
8.980560000000000400e+02 5.903534920446917056e+01
9.013540000000000418e+02 5.906515514941565925e+01
9.046520000000000437e+02 5.909484968448566633e+01
9.079500000000000455e+02 5.912443460281625107e+01
9.112480000000000473e+02 5.915391184651207368e+01
9.145460000000000491e+02 5.918328322909086836e+01
9.178440000000000509e+02 5.921255070439868717e+01
9.211420000000000528e+02 5.924171591705369622e+01
9.244400000000000546e+02 5.927078075069006502e+01
9.277380000000000564e+02 5.929974689599909254e+01
9.310360000000000582e+02 5.932861614521003446e+01
9.343340000000000600e+02 5.935739019241469094e+01
9.376320000000000618e+02 5.938607079923339427e+01
9.409300000000000637e+02 5.941465948905216266e+01
9.442280000000000655e+02 5.944315804554869231e+01
9.475260000000000673e+02 5.947156799681045669e+01
9.508240000000000691e+02 5.949989094294280534e+01
9.541219999999999573e+02 5.952812849099612436e+01
9.574199999999999591e+02 5.955628217196579044e+01
9.607179999999999609e+02 5.958435354725131106e+01
9.640159999999999627e+02 5.961234425811677085e+01
9.673139999999999645e+02 5.964025557884583861e+01
9.706119999999999663e+02 5.966808909098379132e+01
9.739099999999999682e+02 5.969584638986034975e+01
9.772079999999999700e+02 5.972352868156920636e+01
9.805059999999999718e+02 5.975113752906892017e+01
9.838039999999999736e+02 5.977867428478307943e+01
9.871019999999999754e+02 5.980614037762200752e+01
9.903999999999999773e+02 5.983353723841486982e+01
9.936979999999999791e+02 5.986086603539379070e+01
9.969959999999999809e+02 5.988812830470821069e+01
1.000293999999999983e+03 5.991532526623758059e+01
1.003591999999999985e+03 5.994245821149507947e+01
1.006889999999999986e+03 5.996952862581290589e+01
1.010187999999999988e+03 5.999653749544003034e+01
1.013485999999999990e+03 6.002348632576856602e+01
1.016783999999999992e+03 6.005037617070060207e+01
1.020081999999999994e+03 6.007720831331572242e+01
1.023379999999999995e+03 6.010398404745094325e+01
1.026678000000000111e+03 6.013070443658858011e+01
1.029976000000000113e+03 6.015737091709726769e+01
1.033274000000000115e+03 6.018398431366292556e+01
1.036572000000000116e+03 6.021054625278351580e+01
1.039870000000000118e+03 6.023705744676573204e+01
1.043168000000000120e+03 6.026351905254627184e+01
1.046466000000000122e+03 6.028993242442871292e+01
1.049764000000000124e+03 6.031629858691540846e+01
1.053062000000000126e+03 6.034261858827169078e+01
1.056360000000000127e+03 6.036889367810280049e+01
1.059657999999999902e+03 6.039512473291537020e+01
1.062955999999999904e+03 6.042131276858941646e+01
1.066253999999999905e+03 6.044745905470507097e+01
1.069551999999999907e+03 6.047356463244405234e+01
1.072849999999999909e+03 6.049963013761594510e+01
1.076147999999999911e+03 6.052565712899252759e+01
1.079445999999999913e+03 6.055164623475415908e+01
1.082743999999999915e+03 6.057759849413287156e+01
1.086041999999999916e+03 6.060351515270799183e+01
1.089339999999999918e+03 6.062939689518395170e+01
1.092637999999999920e+03 6.065524481773777410e+01
1.095935999999999922e+03 6.068105968535799377e+01
1.099233999999999924e+03 6.070684273994086766e+01
1.102531999999999925e+03 6.073259484522072427e+01
1.105829999999999927e+03 6.075831675983463498e+01
1.109127999999999929e+03 6.078400947043888181e+01
1.112425999999999931e+03 6.080967395542054277e+01
1.115723999999999933e+03 6.083531095754337059e+01
1.119021999999999935e+03 6.086092172168866199e+01
1.122319999999999936e+03 6.088650673440830730e+01
1.125617999999999938e+03 6.091206704307271735e+01
1.128915999999999940e+03 6.093760350836311801e+01
1.132213999999999942e+03 6.096311696339893871e+01
1.135511999999999944e+03 6.098860825451603773e+01
1.138809999999999945e+03 6.101407826807596280e+01
1.142107999999999947e+03 6.103952787438952754e+01
1.145405999999999949e+03 6.106495773687215944e+01
1.148703999999999951e+03 6.109036883747356939e+01
1.152001999999999953e+03 6.111576181739877711e+01
1.155299999999999955e+03 6.114113766874455536e+01
1.158597999999999956e+03 6.116649703176568664e+01
1.161895999999999958e+03 6.119184081013703747e+01
1.165193999999999960e+03 6.121716983930616607e+01
1.168491999999999962e+03 6.124248465441602463e+01
1.171789999999999964e+03 6.126778609968241085e+01
1.175087999999999965e+03 6.129307521410199655e+01
1.178385999999999967e+03 6.131835250347969435e+01
1.181683999999999969e+03 6.134361886645874051e+01
1.184981999999999971e+03 6.136887477292306414e+01
1.188279999999999973e+03 6.139412127836590116e+01
1.191577999999999975e+03 6.141935885375593784e+01
1.194875999999999976e+03 6.144458858224934517e+01
1.198173999999999978e+03 6.146981069652643015e+01
1.201471999999999980e+03 6.149502637531362126e+01
1.204769999999999982e+03 6.152023603249671879e+01
1.208067999999999984e+03 6.154544048714864601e+01
1.211365999999999985e+03 6.157064045196995750e+01
1.214663999999999987e+03 6.159583661247754094e+01
1.217961999999999989e+03 6.162102972030621117e+01
1.221259999999999991e+03 6.164622033579706795e+01
1.224557999999999993e+03 6.167140921499551354e+01
1.227855999999999995e+03 6.169659690881136527e+01
1.231153999999999996e+03 6.172178433010230947e+01
1.234451999999999998e+03 6.174697192788557487e+01
1.237750000000000000e+03 6.177216055279195928e+01
1.241048000000000002e+03 6.179735062078574970e+01
1.244346000000000004e+03 6.182254314284510599e+01
1.247644000000000005e+03 6.184773821094310620e+01
1.250942000000000007e+03 6.187293716086671935e+01
1.254240000000000009e+03 6.189814002874461352e+01
1.257538000000000011e+03 6.192334789170163845e+01
1.260836000000000013e+03 6.194856125180812256e+01
1.264134000000000015e+03 6.197378058064992956e+01
1.267432000000000016e+03 6.199900669420837573e+01
1.270730000000000018e+03 6.202423999602898164e+01
1.274028000000000020e+03 6.204948145703244933e+01
1.277326000000000022e+03 6.207473137703061639e+01
1.280624000000000024e+03 6.209999050289284384e+01
1.283922000000000025e+03 6.212525957605173943e+01
1.287220000000000027e+03 6.215053885290866731e+01
1.290518000000000029e+03 6.217582918850718698e+01
1.293816000000000031e+03 6.220113122922790438e+01
1.297114000000000033e+03 6.222644539423234278e+01
1.300412000000000035e+03 6.225177240400852696e+01
1.303710000000000036e+03 6.227711271835681117e+01
1.307008000000000038e+03 6.230246717167636916e+01
1.310306000000000040e+03 6.232783610185875744e+01
1.313604000000000042e+03 6.235322024992535006e+01
