% Temperatures (K)Cp (J/K/mol)
1.0 0.0357602965189 
4.298 0.157703584321 
7.596 0.292271171125 
10.894 0.447902255436 
14.192 0.633040222067 
17.49 0.856133222735 
20.788 1.12563424977 
24.086 1.44999078125 
27.384 1.83757302793 
30.682 2.29643124024 
33.98 2.83379797424 
37.278 3.45539570388 
40.576 4.16474696313 
43.874 4.96269779309 
47.172 5.84727182431 
50.47 6.81385479342 
53.768 7.85562822974 
57.066 8.96414121781 
60.364 10.1299175299 
63.662 11.3430224425 
66.96 12.5935441412 
70.258 13.8719705513 
73.556 15.169460804 
76.854 16.4780217505 
80.152 17.7906052739 
83.45 19.1011436705 
86.748 20.4045394354 
90.046 21.6966236999 
93.344 22.9740949881 
96.642 24.2344474196 
99.94 25.4758952243 
103.238 26.6972985677 
106.536 27.8980941292 
109.834 29.0782328743 
113.132 30.2381265187 
116.43 31.3786037925 
119.728 32.5008773289 
123.026 33.6065219346 
126.324 34.6974651039 
129.622 35.7759911072 
132.92 36.8447604982 
136.218 37.9068479309 
139.516 38.9658023705 
142.814 40.025736107 
146.112 41.0914517523 
149.41 42.1686216078 
152.708 43.2640407954 
156.006 44.3859881098 
159.304 45.5447488201 
162.602 46.7533887508 
165.9 48.0289327097 
169.198 49.3942200369 
172.496 50.8809486037 
175.794 52.5349249869 
179.092 54.4257004687 
182.39 56.6657117693 
185.688 59.4524763585 
188.986 63.1760713589 
192.284 68.7593062259 
195.582 79.2298463462 
198.88 119.830436929 
202.178 40.4381286419 
205.476 40.763832708 
208.774 41.0786806357 
212.072 41.3831538616 
215.37 41.6777109716 
218.668 41.9627886486 
221.966 42.2388027191 
225.264 42.5061490126 
228.562 42.7652042835 
231.86 43.0163271818 
235.158 43.2598590363 
238.456 43.4961247437 
241.754 43.7254335424 
245.052 43.948079883 
248.35 44.1643439838 
251.648 44.3744927853 
254.946 44.5787804023 
258.244 44.7774489074 
261.542 44.9707289224 
264.84 45.1588402366 
268.138 45.3419921704 
271.436 45.5203844254 
274.734 45.694207326 
278.032 45.8636423476 
281.33 46.0288627313 
284.628 46.1900336331 
287.926 46.3473127749 
291.224 46.5008507174 
294.522 46.6507912204 
297.82 46.7972716051 
301.118 46.9404230411 
304.416 47.0803709515 
307.714 47.2172351614 
311.012 47.3511303759 
314.31 47.4821661792 
317.608 47.6104474802 
320.906 47.7360746805 
324.204 47.8591439255 
327.502 47.9797472118 
330.8 48.0979727184 
334.098 48.2139049302 
337.396 48.3276248112 
340.694 48.4392099122 
343.992 48.5487347713 
347.29 48.6562706757 
350.588 48.7618861891 
353.886 48.8656470983 
357.184 48.9676164157 
360.482 49.0678548047 
363.78 49.1664204713 
367.078 49.2633693841 
370.376 49.3587552519 
373.674 49.4526298051 
376.972 49.5450427148 
380.27 49.6360417729 
383.568 49.7256729636 
386.866 49.8139805212 
390.164 49.9010070673 
393.462 49.9867936409 
396.76 50.0713796465 
400.058 50.1548032619 
403.356 50.2371010549 
406.654 50.3183083504 
409.952 50.3984593199 
413.25 50.4775867215 
416.548 50.5557222207 
419.846 50.632896433 
423.144 50.7091388719 
426.442 50.7844779566 
429.74 50.8589411797 
433.038 50.9325550789 
436.336 51.0053452926 
439.634 51.0773365943 
442.932 51.1485528949 
446.23 51.2190173303 
449.528 51.2887522672 
452.826 51.3577793517 
456.124 51.4261194774 
459.422 51.4937928171 
462.72 51.560819008 
466.018 51.6272170385 
469.316 51.6930051105 
472.614 51.7582011132 
475.912 51.8228221649 
479.21 51.8868849773 
482.508 51.9504056158 
485.806 52.0133998241 
489.104 52.0758826465 
492.402 52.137868849 
495.7 52.1993726599 
498.998 52.2604078957 
502.296 52.3209879656 
505.594 52.3811258664 
508.892 52.4408342497 
512.19 52.5001253064 
515.488 52.5590109544 
518.786 52.6175027897 
522.084 52.6756119517 
525.382 52.7333493647 
528.68 52.7907256186 
531.978 52.8477509762 
535.276 52.9044354662 
538.574 52.9607887831 
541.872 53.0168203471 
545.17 53.0725394512 
548.468 53.1279548632 
551.766 53.1830754358 
555.064 53.2379095333 
558.362 53.2924653907 
561.66 53.346751085 
564.958 53.4007743547 
568.256 53.4545428328 
571.554 53.5080638381 
574.852 53.5613447243 
578.15 53.6143924015 
581.448 53.6672137214 
584.746 53.7198154147 
588.044 53.7722039308 
591.342 53.8243855623 
594.64 53.8763665778 
597.938 53.9281529282 
601.236 53.9797505602 
604.534 54.0311651681 
607.832 54.0824023764 
611.13 54.1334676366 
614.428 54.1843662616 
617.726 54.2351034763 
621.024 54.2856843712 
624.322 54.3361139027 
627.62 54.3863969171 
630.918 54.4365381057 
634.216 54.4865422912 
637.514 54.5364138297 
640.812 54.5861572001 
644.11 54.635776693 
647.408 54.6852765376 
650.706 54.7346610391 
654.004 54.7839339819 
657.302 54.8330994714 
660.6 54.882161487 
663.898 54.9311236408 
667.196 54.9799896935 
670.494 55.0287633294 
673.792 55.0774481721 
677.09 55.1260476009 
680.388 55.1745650366 
683.686 55.2230039414 
686.984 55.2713674583 
690.282 55.319658983 
693.58 55.3678814481 
696.878 55.416038151 
700.176 55.4641320452 
703.474 55.5121660431 
706.772 55.5601431539 
710.07 55.6080662237 
713.368 55.6559380703 
716.666 55.7037614855 
719.964 55.7515391407 
723.262 55.7992736955 
726.56 55.8469678053 
729.858 55.8946240811 
733.156 55.9422448114 
736.454 55.9898327425 
739.752 56.0373902858 
743.05 56.0849196656 
746.348 56.1324234243 
749.646 56.1799038557 
752.944 56.2273631826 
756.242 56.2748035778 
759.54 56.3222274777 
762.838 56.3696368259 
766.136 56.417033916 
769.434 56.4644207822 
772.732 56.5117996159 
776.03 56.5591723512 
779.328 56.6065410563 
782.626 56.6539075879 
785.924 56.7012741439 
789.222 56.7486425149 
792.52 56.7960145542 
795.818 56.8433922132 
799.116 56.8907774296 
802.414 56.9381719098 
805.712 56.9855773655 
809.01 57.0329958125 
812.308 57.0804288432 
815.606 57.1278784207 
818.904 57.1753459818 
822.202 57.2228333235 
825.5 57.2703420947 
828.798 57.3178740871 
832.096 57.3654307985 
835.394 57.4130139341 
838.692 57.460625055 
841.99 57.5082656924 
845.288 57.5559374081 
848.586 57.6036418221 
851.884 57.6513804888 
855.182 57.6991549068 
858.48 57.7469666472 
861.778 57.7948169874 
865.076 57.8427074961 
868.374 57.8906398282 
871.672 57.9386152151 
874.97 57.9866351832 
878.268 58.0347010228 
881.566 58.0828141992 
884.864 58.1309763449 
888.162 58.1791886968 
891.46 58.2274524159 
894.758 58.2757691058 
898.056 58.3241400789 
901.354 58.3725667813 
904.652 58.4210503988 
907.95 58.4695923104 
911.248 58.5181938012 
914.546 58.5668563257 
917.844 58.6155809538 
921.142 58.6643691251 
924.44 58.7132222398 
927.738 58.7621414304 
931.036 58.8111280839 
934.334 58.860183299 
937.632 58.9093084508 
940.93 58.9585048653 
944.228 59.0077735756 
947.526 59.0571158723 
950.824 59.1065333106 
954.122 59.1560268124 
957.42 59.2055976353 
960.718 59.2552472055 
964.016 59.3049765038 
967.314 59.354786902 
970.612 59.4046795224 
973.91 59.4546557342 
977.208 59.5047165788 
980.506 59.554863245 
983.804 59.6050972776 
987.102 59.655419274 
990.4 59.7058309575 
993.698 59.7563334365 
996.996 59.8069277113 
1000.294 59.8576151453 
1003.592 59.9083966836 
1006.89 59.9592739281 
1010.188 60.0102477148 
1013.486 60.0613193573 
1016.784 60.1124900872 
1020.082 60.1637609783 
1023.38 60.215133402 
1026.678 60.2666083234 
1029.976 60.3181871404 
1033.274 60.3698709832 
1036.572 60.4216609825 
1039.87 60.473558324 
1043.168 60.5255642501 
1046.466 60.577679862 
1049.764 60.6299066721 
1053.062 60.682245237 
1056.36 60.7346974163 
1059.658 60.7872640883 
1062.956 60.8399465133 
1066.254 60.8927459207 
1069.552 60.9456636665 
1072.85 60.9987004903 
1076.148 61.0518579547 
1079.446 61.1051373714 
1082.744 61.1585395604 
1086.042 61.2120662608 
1089.34 61.2657184 
1092.638 61.3194972476 
1095.936 61.3734038366 
1099.234 61.427439784 
1102.532 61.481606086 
1105.83 61.5359041832 
1109.128 61.5903347568 
1112.426 61.6448999848 
1115.724 61.6996004296 
1119.022 61.7544374677 
1122.32 61.809412701 
1125.618 61.8645270479 
1128.916 61.9197821417 
1132.214 61.9751788916 
1135.512 62.030718742 
1138.81 62.0864030418 
1142.108 62.1422330045 
1145.406 62.1982099722 
1148.704 62.2543354768 
1152.002 62.3106106163 
1155.3 62.3670366909 
1158.598 62.4236152193 
1161.896 62.4803473797 
1165.194 62.5372347454 
1168.492 62.5942786743 
1171.79 62.6514801087 
1175.088 62.7088409421 
1178.386 62.7663620785 
1181.684 62.8240455504 
1184.982 62.8818922506 
1188.28 62.9399037248 
1191.578 62.9980816388 
1194.876 63.0564270447 
1198.174 63.114941759 
1201.472 63.1736267961 
1204.77 63.2324840773 
1208.068 63.2915147656 
1211.366 63.3507207264 
1214.664 63.4101027873 
1217.962 63.4696631211 
1221.26 63.5294027641 
1224.558 63.5893237241 
1227.856 63.6494271653 
1231.154 63.7097147639 
1234.452 63.7701882602 
1237.75 63.8308489139 
1241.048 63.8916983491 
1244.346 63.9527383575 
1247.644 64.0139706004 
1250.942 64.075396461 
1254.24 64.137017761 
1257.538 64.1988361851 
1260.836 64.2608529522 
1264.134 64.3230704281 
1267.432 64.3854898072 
1270.73 64.4481133038 
1274.028 64.5109419685 
1277.326 64.5739780944 
1280.624 64.6372232071 
1283.922 64.700679133 
1287.22 64.7643477624 
1290.518 64.8282303674 
1293.816 64.8923295271 
1297.114 64.9566469612 
1300.412 65.0211840089 
1303.71 65.0859426861 
1307.008 65.1509251756 
1310.306 65.2161332899 
1313.604 65.2815689929 
1316.902 65.3472338775 
1320.2 65.4131304527 
1323.498 65.4792601807 
1326.796 65.5456254166 
1330.094 65.6122281456 
1333.392 65.6790704673 
1336.69 65.7461538393 
1339.988 65.8134810572 
1343.286 65.8810539074 
1346.584 65.9488745344 
1349.882 66.0169454686 
1353.18 66.0852684748 
1356.478 66.1538455351 
1359.776 66.2226794199 
1363.074 66.2917720196 
1366.372 66.3611255 
1369.67 66.4307426842 
1372.968 66.5006251573 
1376.266 66.5707756352 
1379.564 66.6411964289 
1382.862 66.7118899525 
1386.16 66.7828590475 
1389.458 66.854105151 
1392.756 66.9256317184 
1396.054 66.9974405752 
1399.352 67.0695345091 
1402.65 67.1419161975 
1405.948 67.2145875638 
1409.246 67.2875524798 
1412.544 67.3608123998 
1415.842 67.4343703886 
1419.14 67.5082292864 
1422.438 67.5823915209 
1425.736 67.6568601045 
1429.034 67.7316376375 
1432.332 67.8067273604 
1435.63 67.8821317537 
1438.928 67.9578536715 
1442.226 68.0338964911 
1445.524 68.1102623332 
1448.822 68.186955124 
1452.12 68.2639773359 
1455.418 68.3413326432 
1458.716 68.4190235387 
1462.014 68.4970526748 
1465.312 68.5754245521 
1468.61 68.6541418163 
1471.908 68.7332072926 
1475.206 68.8126248761 
1478.504 68.8923978373 
1481.802 68.9725294413 
1485.1 69.0530236084 
1488.398 69.1338826892 
1491.696 69.2151113116 
1494.994 69.2967123342 
1498.292 69.3786902253 
1501.59 69.4610474684 
1504.888 69.5437891903 
1508.186 69.6269177944 
1511.484 69.7104380972 
1514.782 69.7943531358 
1518.08 69.8786675044 
1521.378 69.9633851847 
1524.676 70.0485097054 
1527.974 70.1340454509 
1531.272 70.2199963048 
1534.57 70.3063673882 
1537.868 70.3931613663 
1541.166 70.4803845208 
1544.464 70.5680391888 
1547.762 70.6561313309 
1551.06 70.744664159 
1554.358 70.8336439526 
1557.656 70.9230739464 
1560.954 71.0129599256 
1564.252 71.1033049568 
1567.55 71.1941150437 
1570.848 71.2853953651 
1574.146 71.3771498778 
1577.444 71.4693849014 
1580.742 71.5621044289 
1584.04 71.6553146474 
1587.338 71.7490194842 
1590.636 71.8432256545 
1593.934 71.9379383599 
1597.232 72.0331620898 
1600.53 72.128903441 
1603.828 72.2251678199 
1607.126 72.3219609008 
1610.424 72.4192891394 
1613.722 72.5171576267 
1617.02 72.6155728321 
1620.318 72.7145412012 
1623.616 72.8140684384 
1626.914 72.9141605971 
1630.212 73.0148251139 
1633.51 73.1160684111 
1636.808 73.2178963766 
1640.106 73.320316288 
1643.404 73.4233340581 
1646.702 73.5269592481 
1650.0 73.6311948515 
