% Temperatures (K)Cp (J/K/mol)
1.0 4.05040650249e-05 
4.298 0.0032158653454 
7.596 0.0177522572964 
10.894 0.0523674183951 
14.192 0.115779237968 
17.49 0.216705994802 
20.788 0.363865834556 
24.086 0.565963023346 
27.384 0.831600319157 
30.682 1.16899518274 
33.98 1.58541886801 
37.278 2.08644401951 
40.576 2.67522610442 
43.874 3.35204074021 
47.172 4.11418631758 
50.47 4.9562341311 
53.768 5.8705275606 
57.066 6.84780767583 
60.364 7.87785745272 
63.662 8.95008870578 
66.96 10.0540292307 
70.258 11.1796946612 
73.556 12.3178479332 
76.854 13.4601598 
80.152 14.5992884674 
83.45 15.7288971379 
86.748 16.8436267122 
90.046 17.9390382964 
93.344 19.0115372469 
96.642 20.0582877105 
99.94 21.0771241967 
103.238 22.0664647187 
106.536 23.025228476 
109.834 23.9527598598 
113.132 24.8487596968 
116.43 25.7132240305 
119.728 26.54639033 
123.026 27.3486907479 
126.324 28.1207118972 
129.622 28.8631605345 
132.92 29.5768345171 
136.218 30.2625984094 
139.516 30.9213631462 
142.814 31.5540692078 
146.112 32.1616728118 
149.41 32.7451347084 
152.708 33.3054110487 
156.006 33.843446263 
159.304 34.3601673861 
162.602 34.8564796968 
165.9 35.333263439 
169.198 35.7913714327 
172.496 36.2316274196 
175.794 36.6548250086 
179.092 37.061727109 
182.39 37.4530657571 
185.688 37.8295422566 
188.986 38.1918275679 
192.284 38.5405628901 
195.582 38.8763603912 
198.88 39.199804049 
202.178 39.5114505717 
205.476 39.8118303724 
208.774 40.1014485781 
212.072 40.3807860564 
215.37 40.6503004454 
218.668 40.9104271788 
221.966 41.1615804942 
225.264 41.4041544228 
228.562 41.6385237508 
231.86 41.865044953 
235.158 42.0840570933 
238.456 42.2958826922 
241.754 42.5008285582 
245.052 42.6991865856 
248.35 42.8912345151 
251.648 43.077236661 
254.946 43.2574446029 
258.244 43.4320978441 
261.542 43.6014244374 
264.84 43.7656415789 
268.138 43.9249561719 
271.436 44.0795653608 
274.734 44.2296570377 
278.032 44.3754103216 
281.33 44.5169960124 
284.628 44.6545770202 
287.926 44.7883087717 
291.224 44.9183395948 
294.522 45.0448110818 
297.82 45.1678584333 
301.118 45.2876107832 
304.416 45.4041915062 
307.714 45.517718508 
311.012 45.6283045006 
314.31 45.7360572617 
317.608 45.8410798805 
320.906 45.9434709904 
324.204 46.0433249885 
327.502 46.1407322435 
330.8 46.2357792927 
334.098 46.3285490282 
337.396 46.4191208726 
340.694 46.5075709467 
343.992 46.5939722265 
347.29 46.6783946934 
350.588 46.7609054757 
353.886 46.8415689828 
357.184 46.9204470326 
360.482 46.9975989716 
363.78 47.0730817899 
367.078 47.1469502291 
370.376 47.2192568852 
373.674 47.2900523064 
376.972 47.3593850855 
380.27 47.4273019478 
383.568 47.493847835 
386.866 47.5590659835 
390.164 47.6229980008 
393.462 47.6856839364 
396.76 47.74716235 
400.058 47.8074703763 
403.356 47.8666437861 
406.654 47.9247170454 
409.952 47.9817233707 
413.25 48.037694782 
416.548 48.0926621533 
419.846 48.1466552607 
423.144 48.1997028281 
426.442 48.2518325708 
429.74 48.303071237 
433.038 48.3534446475 
436.336 48.4029777335 
439.634 48.4516945725 
442.932 48.4996184226 
446.23 48.5467717554 
449.528 48.5931762877 
452.826 48.6388530104 
456.124 48.683822218 
459.422 48.7281035355 
462.72 48.7717159441 
466.018 48.8146778068 
469.316 48.8570068916 
472.614 48.8987203945 
475.912 48.9398349612 
479.21 48.980366708 
482.508 49.0203312416 
485.806 49.0597436782 
489.104 49.0986186618 
492.402 49.1369703817 
495.7 49.174812589 
498.998 49.2121586128 
502.296 49.2490213758 
505.594 49.2854134086 
508.892 49.3213468638 
512.19 49.3568335302 
515.488 49.3918848448 
518.786 49.4265119061 
522.084 49.4607254855 
525.382 49.4945360389 
528.68 49.5279537181 
531.978 49.5609883805 
535.276 49.5936496002 
538.574 49.6259466771 
541.872 49.6578886464 
545.17 49.6894842877 
548.468 49.7207421338 
551.766 49.7516704786 
555.064 49.7822773851 
558.362 49.8125706938 
561.66 49.842558029 
564.958 49.8722468069 
568.256 49.9016442418 
571.554 49.9307573529 
574.852 49.9595929706 
578.15 49.9881577428 
581.448 50.0164581404 
584.746 50.0445004632 
588.044 50.0722908456 
591.342 50.0998352611 
594.64 50.1271395281 
597.938 50.1542093146 
601.236 50.1810501424 
604.534 50.2076673925 
607.832 50.2340663087 
611.13 50.2602520023 
614.428 50.2862294558 
617.726 50.3120035273 
621.024 50.3375789538 
624.322 50.362960355 
627.62 50.3881522371 
630.918 50.4131589959 
634.216 50.4379849202 
637.514 50.4626341949 
640.812 50.4871109043 
644.11 50.5114190347 
647.408 50.5355624776 
650.706 50.5595450323 
654.004 50.5833704086 
657.302 50.6070422295 
660.6 50.6305640335 
663.898 50.6539392772 
667.196 50.6771713375 
670.494 50.7002635139 
673.792 50.7232190309 
677.09 50.7460410398 
680.388 50.7687326208 
683.686 50.7912967853 
686.984 50.8137364774 
690.282 50.8360545762 
693.58 50.8582538972 
696.878 50.8803371941 
700.176 50.9023071609 
703.474 50.9241664329 
706.772 50.9459175889 
710.07 50.9675631523 
713.368 50.9891055928 
716.666 51.0105473278 
719.964 51.0318907238 
723.262 51.0531380978 
726.56 51.0742917184 
729.858 51.0953538074 
733.156 51.1163265409 
736.454 51.1372120503 
739.752 51.1580124238 
743.05 51.1787297075 
746.348 51.199365906 
749.646 51.2199229842 
752.944 51.2404028679 
756.242 51.2608074447 
759.54 51.2811385654 
762.838 51.3013980445 
766.136 51.3215876614 
769.434 51.3417091612 
772.732 51.3617642556 
776.03 51.3817546237 
779.328 51.4016819129 
782.626 51.4215477395 
785.924 51.4413536898 
789.222 51.4611013204 
792.52 51.4807921594 
795.818 51.5004277068 
799.116 51.5200094353 
802.414 51.5395387911 
805.712 51.5590171942 
809.01 51.5784460393 
812.308 51.5978266964 
815.606 51.6171605115 
818.904 51.6364488067 
822.202 51.6556928816 
825.5 51.6748940129 
828.798 51.6940534558 
832.096 51.7131724438 
835.394 51.7322521898 
838.692 51.7512938862 
841.99 51.7702987057 
845.288 51.7892678015 
848.586 51.8082023077 
851.884 51.8271033402 
855.182 51.8459719966 
858.48 51.8648093571 
861.778 51.8836164846 
865.076 51.902394425 
868.374 51.921144208 
871.672 51.9398668472 
874.97 51.9585633405 
878.268 51.9772346707 
881.566 51.9958818053 
884.864 52.0145056975 
888.162 52.0331072861 
891.46 52.0516874961 
894.758 52.0702472386 
898.056 52.0887874119 
901.354 52.1073089007 
904.652 52.1258125776 
907.95 52.1442993024 
911.248 52.162769923 
914.546 52.1812252752 
917.844 52.1996661836 
921.142 52.2180934612 
924.44 52.2365079102 
927.738 52.2549103217 
931.036 52.2733014765 
934.334 52.291682145 
937.632 52.3100530877 
940.93 52.3284150549 
944.228 52.3467687876 
947.526 52.3651150173 
950.824 52.3834544664 
954.122 52.4017878481 
957.42 52.420115867 
960.718 52.4384392191 
964.016 52.4567585921 
967.314 52.4750746654 
970.612 52.4933881104 
973.91 52.5116995909 
977.208 52.5300097627 
980.506 52.5483192745 
983.804 52.5666287674 
987.102 52.5849388757 
990.4 52.6032502264 
993.698 52.6215634401 
996.996 52.6398791303 
1000.294 52.6581979044 
1003.592 52.6765203633 
1006.89 52.6948471017 
1010.188 52.7131787083 
1013.486 52.7315157658 
1016.784 52.7498588513 
1020.082 52.7682085362 
1023.38 52.7865653863 
1026.678 52.8049299621 
1029.976 52.823302819 
1033.274 52.8416845071 
1036.572 52.8600755716 
1039.87 52.8784765527 
1043.168 52.896887986 
1046.466 52.9153104024 
1049.764 52.9337443283 
1053.062 52.9521902856 
1056.36 52.9706487919 
1059.658 52.9891203608 
1062.956 53.0076055016 
1066.254 53.0261047196 
1069.552 53.0446185163 
1072.85 53.0631473893 
1076.148 53.0816918327 
1079.446 53.1002523368 
1082.744 53.1188293885 
1086.042 53.1374234713 
1089.34 53.1560350651 
1092.638 53.1746646471 
1095.936 53.1933126908 
1099.234 53.211979667 
1102.532 53.2306660433 
1105.83 53.2493722846 
1109.128 53.2680988528 
1112.426 53.2868462072 
1115.724 53.3056148043 
1119.022 53.3244050983 
1122.32 53.3432175405 
1125.618 53.3620525801 
1128.916 53.3809106637 
1132.214 53.3997922359 
1135.512 53.4186977389 
1138.81 53.4376276127 
1142.108 53.4565822953 
1145.406 53.4755622228 
1148.704 53.4945678293 
1152.002 53.5135995469 
1155.3 53.532657806 
1158.598 53.5517430353 
1161.896 53.5708556618 
1165.194 53.5899961109 
1168.492 53.6091648063 
1171.79 53.6283621703 
1175.088 53.6475886239 
1178.386 53.6668445865 
1181.684 53.6861304764 
1184.982 53.7054467104 
1188.28 53.7247937043 
1191.578 53.7441718727 
1194.876 53.763581629 
1198.174 53.7830233857 
1201.472 53.8024975543 
1204.77 53.8220045453 
1208.068 53.8415447684 
1211.366 53.8611186324 
1214.664 53.8807265453 
1217.962 53.9003689146 
1221.26 53.9200461468 
1224.558 53.939758648 
1227.856 53.9595068238 
1231.154 53.9792910789 
1234.452 53.999111818 
1237.75 54.018969445 
1241.048 54.0388643637 
1244.346 54.0587969773 
1247.644 54.0787676888 
1250.942 54.0987769012 
1254.24 54.1188250169 
1257.538 54.1389124385 
1260.836 54.1590395682 
1264.134 54.1792068084 
1267.432 54.1994145614 
1270.73 54.2196632293 
1274.028 54.2399532147 
1277.326 54.2602849199 
1280.624 54.2806587476 
1283.922 54.3010751006 
1287.22 54.3215343821 
1290.518 54.3420369953 
1293.816 54.3625833439 
1297.114 54.383173832 
1300.412 54.4038088641 
1303.71 54.424488845 
1307.008 54.4452141802 
1310.306 54.4659852755 
1313.604 54.4868025375 
1316.902 54.5076663733 
1320.2 54.5285771905 
1323.498 54.5495353978 
1326.796 54.5705414042 
1330.094 54.5915956197 
1333.392 54.6126984551 
1336.69 54.6338503219 
1339.988 54.6550516327 
1343.286 54.676302801 
1346.584 54.697604241 
1349.882 54.7189563683 
1353.18 54.7403595992 
1356.478 54.7618143513 
1359.776 54.7833210433 
1363.074 54.804880095 
1366.372 54.8264919273 
1369.67 54.8481569626 
1372.968 54.8698756245 
1376.266 54.8916483377 
1379.564 54.9134755284 
1382.862 54.9353576244 
1386.16 54.9572950546 
1389.458 54.9792882495 
1392.756 55.0013376413 
1396.054 55.0234436634 
1399.352 55.045606751 
1402.65 55.0678273409 
1405.948 55.0901058717 
1409.246 55.1124427834 
1412.544 55.134838518 
1415.842 55.1572935192 
1419.14 55.1798082324 
1422.438 55.2023831052 
1425.736 55.2250185868 
1429.034 55.2477151284 
1432.332 55.2704731832 
1435.63 55.2932932066 
1438.928 55.3161756557 
1442.226 55.3391209901 
1445.524 55.3621296712 
1448.822 55.3852021629 
1452.12 55.408338931 
1455.418 55.4315404438 
1458.716 55.4548071719 
1462.014 55.4781395881 
1465.312 55.5015381677 
1468.61 55.5250033884 
1471.908 55.5485357305 
1475.206 55.5721356765 
1478.504 55.5958037119 
1481.802 55.6195403244 
1485.1 55.6433460046 
1488.398 55.6672212457 
1491.696 55.6911665436 
1494.994 55.7151823971 
1498.292 55.7392693076 
1501.59 55.7634277795 
1504.888 55.7876583203 
1508.186 55.8119614401 
1511.484 55.8363376523 
1514.782 55.8607874731 
1518.08 55.8853114219 
1521.378 55.9099100214 
1524.676 55.9345837972 
1527.974 55.9593332783 
1531.272 55.9841589971 
1534.57 56.009061489 
1537.868 56.0340412931 
1541.166 56.0590989517 
1544.464 56.0842350107 
1547.762 56.1094500196 
1551.06 56.1347445313 
1554.358 56.1601191024 
1557.656 56.1855742932 
1560.954 56.2111106678 
1564.252 56.2367287939 
1567.55 56.2624292433 
1570.848 56.2882125913 
1574.146 56.3140794176 
1577.444 56.3400303056 
1580.742 56.3660658429 
1584.04 56.392186621 
1587.338 56.4183932359 
1590.636 56.4446862874 
1593.934 56.47106638 
1597.232 56.4975341224 
1600.53 56.5240901274 
1603.828 56.5507350127 
1607.126 56.5774694003 
1610.424 56.6042939167 
1613.722 56.6312091931 
1617.02 56.6582158656 
1620.318 56.6853145748 
1623.616 56.7125059661 
1626.914 56.7397906901 
1630.212 56.7671694019 
1633.51 56.7946427621 
1636.808 56.8222114361 
1640.106 56.8498760944 
1643.404 56.8776374129 
1646.702 56.9054960726 
1650.0 56.9334527601 
