# Temperatures (K), Cp (J/K/mol)
1.000000000000000000e+00 3.891196099294200184e-02
6.597999999999999865e+00 2.706015543481385399e-01
1.219599999999999973e+01 5.560308569805134660e-01
1.779400000000000048e+01 9.368409537025934597e-01
2.339199999999999946e+01 1.454705173830092235e+00
2.898999999999999844e+01 2.151023849186545434e+00
3.458800000000000097e+01 3.064402716547160122e+00
4.018599999999999994e+01 4.223440407210082626e+00
4.578399999999999892e+01 5.637836264288567989e+00
5.138199999999999790e+01 7.294441804945043017e+00
5.697999999999999687e+01 9.160492243704315030e+00
6.257799999999999585e+01 1.119117700322898656e+01
6.817600000000000193e+01 1.333772109053844090e+01
7.377400000000000091e+01 1.555366182943206610e+01
7.937199999999999989e+01 1.779868121952085858e+01
8.496999999999999886e+01 2.004032084927907320e+01
9.056799999999999784e+01 2.225422912201889858e+01
9.616599999999999682e+01 2.442356140166578271e+01
1.017639999999999958e+02 2.653799889288992020e+01
1.073619999999999948e+02 2.859268927718987641e+01
1.129599999999999937e+02 3.058728569998589819e+01
1.185579999999999927e+02 3.252517804807904156e+01
1.241559999999999917e+02 3.441296551282249538e+01
1.297539999999999907e+02 3.626020428831213849e+01
1.353520000000000039e+02 3.807947487492954508e+01
1.409499999999999886e+02 3.988685194079167218e+01
1.465480000000000018e+02 4.170294088567322177e+01
1.521459999999999866e+02 4.355480672762592320e+01
1.577439999999999998e+02 4.547945716951422668e+01
1.633419999999999845e+02 4.753029472966382940e+01
1.689399999999999977e+02 4.978980996823145233e+01
1.745379999999999825e+02 5.239695036426000740e+01
1.801359999999999957e+02 5.561444402501278006e+01
1.857340000000000089e+02 6.003042506347253493e+01
1.913319999999999936e+02 6.739873931678822316e+01
1.969300000000000068e+02 8.813325368851820940e+01
2.025279999999999916e+02 4.103502436372929196e+01
2.081260000000000048e+02 4.158898623945539441e+01
2.137239999999999895e+02 4.211287098408957519e+01
2.193220000000000027e+02 4.260890591109303926e+01
2.249199999999999875e+02 4.307913961907896550e+01
2.305180000000000007e+02 4.352545565437653607e+01
2.361159999999999854e+02 4.394958539891702998e+01
2.417139999999999986e+02 4.435312033379454277e+01
2.473119999999999834e+02 4.473752365166013334e+01
2.529099999999999966e+02 4.510414098211258249e+01
2.585079999999999814e+02 4.545421035396019960e+01
2.641059999999999945e+02 4.578887129479505802e+01
2.697040000000000077e+02 4.610917341229455957e+01
2.753020000000000209e+02 4.641608394943931160e+01
2.808999999999999773e+02 4.671049493310678002e+01
2.864979999999999905e+02 4.699322957624158903e+01
2.920960000000000036e+02 4.726504821858153349e+01
2.976940000000000168e+02 4.752665357745548391e+01
3.032919999999999732e+02 4.777869569336547073e+01
3.088899999999999864e+02 4.802177635930728172e+01
3.144879999999999995e+02 4.825645308381967880e+01
3.200860000000000127e+02 4.848324287843973224e+01
3.256839999999999691e+02 4.870262551894985847e+01
3.312819999999999823e+02 4.891504659003503264e+01
3.368799999999999955e+02 4.912092029342802135e+01
3.424780000000000086e+02 4.932063202049331352e+01
3.480759999999999650e+02 4.951454046482330540e+01
3.536739999999999782e+02 4.970297994906891859e+01
3.592719999999999914e+02 4.988626227222443532e+01
3.648700000000000045e+02 5.006467835148099255e+01
3.704680000000000177e+02 5.023849994266580410e+01
3.760659999999999741e+02 5.040798105332584100e+01
3.816639999999999873e+02 5.057335933746200851e+01
3.872620000000000005e+02 5.073485726361817427e+01
3.928600000000000136e+02 5.089268316976240669e+01
3.984579999999999700e+02 5.104703249703187140e+01
4.040559999999999832e+02 5.119808859167580550e+01
4.096539999999999964e+02 5.134602353705713540e+01
4.152520000000000095e+02 5.149099897581515961e+01
4.208499999999999659e+02 5.163316708590105719e+01
4.264479999999999791e+02 5.177267081974395779e+01
4.320459999999999923e+02 5.190964491885496557e+01
4.376440000000000055e+02 5.204421621690802624e+01
4.432419999999999618e+02 5.217650435654610419e+01
4.488399999999999750e+02 5.230662216655800023e+01
4.544379999999999882e+02 5.243467617976094886e+01
4.600360000000000014e+02 5.256076696605050813e+01
4.656340000000000146e+02 5.268498962711728950e+01
4.712319999999999709e+02 5.280743402216559446e+01
4.768299999999999841e+02 5.292818529929389371e+01
4.824279999999999973e+02 5.304732399549794053e+01
4.880260000000000105e+02 5.316492638817779692e+01
4.936239999999999668e+02 5.328106483466774534e+01
4.992219999999999800e+02 5.339580796037308374e+01
5.048199999999999932e+02 5.350922083124751083e+01
5.104180000000000064e+02 5.362136523619760453e+01
5.160159999999999627e+02 5.373230000564979036e+01
5.216140000000000327e+02 5.384208080740510383e+01
5.272119999999999891e+02 5.395076085968889146e+01
5.328099999999999454e+02 5.405839060909264759e+01
5.384080000000000155e+02 5.416494721936130929e+01
5.440059999999999718e+02 5.426987700997485575e+01
5.496040000000000418e+02 5.437284896360341691e+01
5.552019999999999982e+02 5.447391918208020911e+01
5.607999999999999545e+02 5.457314204711700256e+01
5.663980000000000246e+02 5.467057033512258357e+01
5.719959999999999809e+02 5.476625485894361134e+01
5.775939999999999372e+02 5.486024505665938023e+01
5.831920000000000073e+02 5.495258878745046616e+01
5.887899999999999636e+02 5.504333227369577486e+01
5.943880000000000337e+02 5.513252035938175055e+01
5.999859999999999900e+02 5.522019661503312449e+01
6.055839999999999463e+02 5.530640308384045056e+01
6.111820000000000164e+02 5.539118057404254358e+01
6.167799999999999727e+02 5.547456864156818312e+01
6.223779999999999291e+02 5.555660563150573950e+01
6.279759999999999991e+02 5.563732866680518896e+01
6.335739999999999554e+02 5.571677389012322124e+01
6.391720000000000255e+02 5.579497612795228889e+01
6.447699999999999818e+02 5.587196937576249667e+01
6.503679999999999382e+02 5.594778649339884424e+01
6.559660000000000082e+02 5.602245928284838072e+01
6.615639999999999645e+02 5.609601871021743591e+01
6.671620000000000346e+02 5.616849487051749179e+01
6.727599999999999909e+02 5.623991676036551013e+01
6.783579999999999472e+02 5.631031278716162802e+01
6.839560000000000173e+02 5.637971031599676763e+01
6.895539999999999736e+02 5.644813588397071413e+01
6.951519999999999300e+02 5.651561546677308456e+01
7.007500000000000000e+02 5.658217424858647604e+01
7.063479999999999563e+02 5.664783639776058521e+01
7.119460000000000264e+02 5.671262563167060478e+01
7.175439999999999827e+02 5.677656516402927878e+01
7.231419999999999391e+02 5.683967697692121135e+01
7.287400000000000091e+02 5.690198316097621500e+01
7.343379999999999654e+02 5.696350452190670666e+01
7.399360000000000355e+02 5.702426160396250765e+01
7.455339999999999918e+02 5.708427439113312829e+01
7.511319999999999482e+02 5.714356225717970972e+01
7.567300000000000182e+02 5.720214395879396108e+01
7.623279999999999745e+02 5.726003774332200180e+01
7.679259999999999309e+02 5.731726152604906588e+01
7.735240000000000009e+02 5.737383254215542649e+01
7.791219999999999573e+02 5.742976760859680496e+01
7.847200000000000273e+02 5.748508312152370081e+01
7.903179999999999836e+02 5.753979500941963465e+01
7.959159999999999400e+02 5.759391870024771976e+01
8.015140000000000100e+02 5.764746931122753182e+01
8.071119999999999663e+02 5.770046167271082282e+01
8.127100000000000364e+02 5.775290970069458751e+01
8.183079999999999927e+02 5.780482760917347917e+01
8.239059999999999491e+02 5.785622886888404537e+01
8.295040000000000191e+02 5.790712654049264074e+01
8.351019999999999754e+02 5.795753362777599449e+01
8.406999999999999318e+02 5.800746253536499353e+01
8.462980000000000018e+02 5.805692541708327781e+01
8.518959999999999582e+02 5.810593416721176396e+01
8.574940000000000282e+02 5.815450045167241200e+01
8.630919999999999845e+02 5.820263526414612443e+01
8.686899999999999409e+02 5.825034985401730125e+01
8.742880000000000109e+02 5.829765474879781806e+01
8.798859999999999673e+02 5.834456054581966100e+01
8.854839999999999236e+02 5.839107720117331013e+01
8.910819999999999936e+02 5.843721474453365516e+01
8.966799999999999500e+02 5.848298296252049511e+01
9.022780000000000200e+02 5.852839099719970761e+01
9.078759999999999764e+02 5.857344828872113851e+01
9.134739999999999327e+02 5.861816369660255077e+01
9.190720000000000027e+02 5.866254605571528202e+01
9.246699999999999591e+02 5.870660389145689351e+01
9.302680000000000291e+02 5.875034557181145090e+01
9.358659999999999854e+02 5.879377916367032952e+01
9.414639999999999418e+02 5.883691262757221807e+01
9.470620000000000118e+02 5.887975372819686726e+01
9.526599999999999682e+02 5.892231016747293637e+01
9.582579999999999245e+02 5.896458923665655050e+01
9.638559999999999945e+02 5.900659821376836334e+01
9.694539999999999509e+02 5.904834409972791320e+01
9.750520000000000209e+02 5.908983389513668527e+01
9.806499999999999773e+02 5.913107425829796426e+01
9.862479999999999336e+02 5.917207173774096418e+01
9.918460000000000036e+02 5.921283287088948555e+01
9.974439999999999600e+02 5.925336405346374846e+01
1.003042000000000030e+03 5.929367124108020448e+01
1.008639999999999986e+03 5.933376063079035845e+01
1.014237999999999943e+03 5.937363803189051481e+01
1.019836000000000013e+03 5.941330913557357718e+01
1.025433999999999969e+03 5.945277981950484758e+01
1.031031999999999925e+03 5.949205538659392545e+01
1.036629999999999882e+03 5.953114129168856294e+01
1.042228000000000065e+03 5.957004277792285052e+01
1.047826000000000022e+03 5.960876516956448512e+01
1.053423999999999978e+03 5.964731326971121206e+01
1.059021999999999935e+03 5.968569243204608199e+01
1.064619999999999891e+03 5.972390714920840793e+01
1.070218000000000075e+03 5.976196245580219824e+01
1.075816000000000031e+03 5.979986273182970535e+01
1.081413999999999987e+03 5.983761275095933030e+01
1.087011999999999944e+03 5.987521704733492811e+01
1.092609999999999900e+03 5.991267969788022896e+01
1.098208000000000084e+03 5.995000528756197156e+01
1.103806000000000040e+03 5.998719788097756123e+01
1.109403999999999996e+03 6.002426181619858880e+01
1.115001999999999953e+03 6.006120098402664809e+01
1.120599999999999909e+03 6.009801938552268297e+01
1.126197999999999865e+03 6.013472089113743380e+01
1.131796000000000049e+03 6.017130917005464141e+01
1.137394000000000005e+03 6.020778850203207355e+01
1.142991999999999962e+03 6.024416205740025276e+01
1.148589999999999918e+03 6.028043386411314941e+01
1.154187999999999874e+03 6.031660708550310090e+01
1.159786000000000058e+03 6.035268549002221050e+01
1.165384000000000015e+03 6.038867234050846378e+01
1.170981999999999971e+03 6.042457114580567890e+01
1.176579999999999927e+03 6.046038498800170657e+01
1.182177999999999884e+03 6.049611730463179526e+01
1.187776000000000067e+03 6.053177136649192391e+01
1.193374000000000024e+03 6.056735014443827936e+01
1.198971999999999980e+03 6.060285684532293971e+01
1.204569999999999936e+03 6.063829430661231612e+01
1.210167999999999893e+03 6.067366571185593216e+01
1.215766000000000076e+03 6.070897411860743631e+01
1.221364000000000033e+03 6.074422202340446830e+01
1.226961999999999989e+03 6.077941281033459120e+01
1.232559999999999945e+03 6.081454872373524978e+01
1.238157999999999902e+03 6.084963273820413576e+01
1.243755999999999858e+03 6.088466782572477598e+01
1.249354000000000042e+03 6.091965618770576896e+01
1.254951999999999998e+03 6.095460072711375688e+01
1.260549999999999955e+03 6.098950405195908075e+01
1.266147999999999911e+03 6.102436866586994313e+01
1.271745999999999867e+03 6.105919712367774821e+01
1.277344000000000051e+03 6.109399201154250392e+01
1.282942000000000007e+03 6.112875537459017039e+01
1.288539999999999964e+03 6.116349008619243222e+01
1.294137999999999920e+03 6.119819835010619613e+01
1.299735999999999876e+03 6.123288230358285489e+01
1.305334000000000060e+03 6.126754466295216162e+01
1.310932000000000016e+03 6.130218747952562808e+01
1.316529999999999973e+03 6.133681286992700166e+01
1.322127999999999929e+03 6.137142375155242036e+01
1.327725999999999885e+03 6.140602138701900259e+01
1.333324000000000069e+03 6.144060837386157203e+01
1.338922000000000025e+03 6.147518704377308296e+01
1.344519999999999982e+03 6.150975917382477576e+01
1.350117999999999938e+03 6.154432710585003719e+01
1.355715999999999894e+03 6.157889287066019079e+01
1.361314000000000078e+03 6.161345829440828936e+01
1.366912000000000035e+03 6.164802587817283097e+01
1.372509999999999991e+03 6.168259701899089009e+01
1.378107999999999947e+03 6.171717426353080782e+01
1.383705999999999904e+03 6.175175930390345513e+01
1.389303999999999860e+03 6.178635401999146382e+01
1.394902000000000044e+03 6.182096037541924716e+01
1.400500000000000000e+03 6.185558050359048821e+01
1.406097999999999956e+03 6.189021576653515666e+01
1.411695999999999913e+03 6.192486860348581956e+01
1.417293999999999869e+03 6.195954073202816659e+01
1.422892000000000053e+03 6.199423366523476631e+01
1.428490000000000009e+03 6.202894945325703446e+01
1.434087999999999965e+03 6.206368995544261935e+01
1.439685999999999922e+03 6.209845672924178928e+01
1.445283999999999878e+03 6.213325208443468739e+01
1.450882000000000062e+03 6.216807698060356557e+01
1.456480000000000018e+03 6.220293370887169715e+01
1.462077999999999975e+03 6.223782376843664821e+01
1.467675999999999931e+03 6.227274926276847111e+01
1.473273999999999887e+03 6.230771124275558037e+01
1.478872000000000071e+03 6.234271197851472834e+01
1.484470000000000027e+03 6.237775292956887085e+01
1.490067999999999984e+03 6.241283580211568704e+01
1.495665999999999940e+03 6.244796213858349887e+01
1.501263999999999896e+03 6.248313372449955239e+01
1.506861999999999853e+03 6.251835205517714655e+01
1.512460000000000036e+03 6.255361914987766880e+01
1.518057999999999993e+03 6.258893588364865934e+01
1.523655999999999949e+03 6.262430477841110843e+01
1.529253999999999905e+03 6.265972688896324172e+01
1.534851999999999862e+03 6.269520395823381875e+01
1.540450000000000045e+03 6.273073781779577018e+01
1.546048000000000002e+03 6.276632927111397464e+01
1.551645999999999958e+03 6.280198062670857695e+01
1.557243999999999915e+03 6.283769312423494569e+01
1.562841999999999871e+03 6.287346870262410903e+01
1.568440000000000055e+03 6.290930872066826396e+01
1.574038000000000011e+03 6.294521436289146976e+01
1.579635999999999967e+03 6.298118780921560500e+01
1.585233999999999924e+03 6.301723031918659501e+01
1.590831999999999880e+03 6.305334356001601748e+01
1.596430000000000064e+03 6.308952840786285066e+01
1.602028000000000020e+03 6.312578729606113370e+01
1.607625999999999976e+03 6.316212142147740138e+01
1.613223999999999933e+03 6.319853254645004625e+01
1.618821999999999889e+03 6.323502144852059814e+01
1.624420000000000073e+03 6.327159037161409572e+01
1.630018000000000029e+03 6.330824078620076278e+01
1.635615999999999985e+03 6.334497359011844964e+01
1.641213999999999942e+03 6.338179131390835863e+01
1.646811999999999898e+03 6.341869488062296512e+01
1.652409999999999854e+03 6.345568557868053006e+01
1.658008000000000038e+03 6.349276551188800966e+01
1.663605999999999995e+03 6.352993592918762999e+01
1.669203999999999951e+03 6.356719789959765166e+01
1.674801999999999907e+03 6.360455371737237584e+01
1.680399999999999864e+03 6.364200458730113041e+01
1.685998000000000047e+03 6.367955231734801202e+01
1.691596000000000004e+03 6.371719783044854779e+01
1.697193999999999960e+03 6.375494273497759679e+01
1.702791999999999916e+03 6.379278911055779844e+01
1.708389999999999873e+03 6.383073803516638378e+01
1.713988000000000056e+03 6.386879127527006261e+01
1.719586000000000013e+03 6.390695024629573595e+01
1.725183999999999969e+03 6.394521670857221096e+01
1.730781999999999925e+03 6.398359202467617024e+01
1.736379999999999882e+03 6.402207744314677029e+01
1.741978000000000065e+03 6.406067509684253025e+01
1.747576000000000022e+03 6.409938603717517935e+01
1.753173999999999978e+03 6.413821206078631576e+01
1.758771999999999935e+03 6.417715515664927750e+01
1.764369999999999891e+03 6.421621624947806595e+01
1.769967999999999847e+03 6.425539693531520413e+01
1.775566000000000031e+03 6.429469913208932041e+01
1.781163999999999987e+03 6.433412427263131406e+01
1.786761999999999944e+03 6.437367388320529926e+01
1.792359999999999900e+03 6.441335000560881952e+01
1.797957999999999856e+03 6.445315372153282851e+01
1.803556000000000040e+03 6.449308681118331776e+01
1.809153999999999996e+03 6.453315078341063327e+01
1.814751999999999953e+03 6.457334776782477093e+01
1.820349999999999909e+03 6.461367915319137012e+01
1.825947999999999865e+03 6.465414623624150181e+01
1.831546000000000049e+03 6.469475069774077269e+01
1.837144000000000005e+03 6.473549495510182794e+01
1.842741999999999962e+03 6.477637960671746953e+01
1.848339999999999918e+03 6.481740713620303040e+01
1.853937999999999874e+03 6.485857903504135891e+01
1.859536000000000058e+03 6.489989708005936109e+01
1.865134000000000015e+03 6.494136312713737880e+01
1.870731999999999971e+03 6.498297809019314286e+01
1.876329999999999927e+03 6.502474437642652560e+01
1.881927999999999884e+03 6.506666362291065298e+01
1.887526000000000067e+03 6.510873818147385350e+01
1.893124000000000024e+03 6.515096888924074392e+01
1.898721999999999980e+03 6.519335782703402060e+01
1.904319999999999936e+03 6.523590682075392522e+01
1.909917999999999893e+03 6.527861770864211621e+01
1.915515999999999849e+03 6.532149193698657541e+01
1.921114000000000033e+03 6.536453272650499002e+01
1.926711999999999989e+03 6.540774024917567431e+01
1.932309999999999945e+03 6.545111749609348806e+01
1.937907999999999902e+03 6.549466532880485659e+01
1.943505999999999858e+03 6.553838646226462572e+01
1.949104000000000042e+03 6.558228271151480726e+01
1.954701999999999998e+03 6.562635518299784110e+01
1.960299999999999955e+03 6.567060721628413944e+01
1.965897999999999911e+03 6.571503989917685828e+01
1.971495999999999867e+03 6.575965529665529630e+01
1.977094000000000051e+03 6.580445489885246957e+01
1.982692000000000007e+03 6.584944204079590691e+01
1.988289999999999964e+03 6.589461757776901152e+01
1.993887999999999920e+03 6.593998372358532833e+01
1.999485999999999876e+03 6.598554343016922985e+01
2.005084000000000060e+03 6.603129776161095776e+01
2.010682000000000016e+03 6.607724936971412433e+01
2.016279999999999973e+03 6.612340007754201565e+01
2.021877999999999929e+03 6.616975135707750155e+01
2.027475999999999885e+03 6.621630737803779709e+01
2.033073999999999842e+03 6.626306807101109086e+01
2.038672000000000025e+03 6.631003722500747699e+01
2.044269999999999982e+03 6.635721686362202831e+01
2.049867999999999938e+03 6.640460829699733836e+01
2.055465999999999894e+03 6.645221385884136112e+01
2.061063999999999851e+03 6.650003730728819562e+01
2.066661999999999807e+03 6.654807958843062465e+01
2.072259999999999764e+03 6.659634369707983126e+01
2.077858000000000175e+03 6.664483106911377774e+01
2.083456000000000131e+03 6.669354549081501204e+01
2.089054000000000087e+03 6.674248859696029967e+01
2.094652000000000044e+03 6.679166307381852619e+01
2.100250000000000000e+03 6.684107053946486587e+01
2.105847999999999956e+03 6.689071443257068950e+01
2.111445999999999913e+03 6.694059681008538121e+01
2.117043999999999869e+03 6.699072157639308500e+01
2.122641999999999825e+03 6.704108921570825430e+01
2.128239999999999782e+03 6.709170298719941172e+01
2.133837999999999738e+03 6.714256666144808605e+01
2.139436000000000149e+03 6.719368173546817502e+01
2.145034000000000106e+03 6.724505141944696618e+01
2.150632000000000062e+03 6.729667826783145301e+01
2.156230000000000018e+03 6.734856412406979587e+01
2.161827999999999975e+03 6.740071422590617090e+01
2.167425999999999931e+03 6.745312897532504337e+01
2.173023999999999887e+03 6.750581271268792705e+01
2.178621999999999844e+03 6.755876721647130978e+01
2.184219999999999800e+03 6.761199652064932764e+01
2.189817999999999756e+03 6.766550221315230829e+01
2.195416000000000167e+03 6.771928935657322768e+01
2.201014000000000124e+03 6.777335975983010030e+01
2.206612000000000080e+03 6.782771641074049285e+01
2.212210000000000036e+03 6.788236194214340458e+01
2.217807999999999993e+03 6.793730033773043431e+01
2.223405999999999949e+03 6.799253442434230976e+01
2.229003999999999905e+03 6.804806859929942675e+01
